"Freq [GHz]","dB(St(resonator_T1,resonator_T2)) [] - trap_section='0.285in'"
0.1,0.0417727704788012
0.11,0.0324300236262455
0.12,0.0237924932047294
0.13,0.0160005857620869
0.14,0.00904160624329643
0.15,0.00284570214850281
0.16,-0.00267437647427519
0.17,-0.00760628258408056
0.18,-0.0120310808062934
0.19,-0.0160208275694951
0.2,-0.0196382455341193
0.21,-0.0229373159149059
0.22,-0.0259642206765662
0.23,-0.0287583625266405
0.24,-0.0313533378233066
0.25,-0.0337778111874413
0.26,-0.0360562770443559
0.27,-0.0382097106544753
0.28,-0.0402561187152366
0.29,-0.0422110021653993
0.3,-0.0440877439368871
0.31,-0.0458979334072837
0.32,-0.047651637896578
0.33,-0.04935763006913
0.34,-0.0510235787087807
0.35,-0.0526562090979237
0.36,-0.0542614381671241
0.37,-0.0558444886845559
0.38,-0.057409986006797
0.39,-0.0589620402939226
0.4,-0.0605043165835439
0.41,-0.0620400947001905
0.42,-0.0635723206345696
0.43,-0.0651036507462426
0.44,-0.0666364899133308
0.45,-0.0681730245638667
0.46,-0.0697152513680933
0.47,-0.0712650022430545
0.48,-0.0728239662152881
0.49,-0.0743937086000985
0.5,-0.0759756878835035
0.51,-0.0775712706328117
0.52,-0.0791817447117638
0.53,-0.0808083310342805
0.54,-0.0824521940559794
0.55,-0.0841144511731891
0.56,-0.0857961811745715
0.57,-0.0874984318696718
0.58,-0.0892222270011454
0.59,-0.0909685725324942
0.6,-0.0927384623906274
0.61,-0.0945328837317694
0.62,-0.0963528217900507
0.63,-0.0981992643604767
0.64,-0.100073205961033
0.65,-0.101975651713326
0.66,-0.103907620975779
0.67,-0.105870150759678
0.68,-0.107864298954278
0.69,-0.10989114738439
0.7,-0.11195180472089
0.71,-0.11404740926242
0.72,-0.116179131604451
0.73,-0.118348177210114
0.74,-0.120555788895669
0.75,-0.122803249242222
0.76,-0.125091882944048
0.77,-0.127423059102979
0.78,-0.129798193477394
0.79,-0.13221875069356
0.8,-0.134686246426562
0.81,-0.137202249557273
0.82,-0.139768384311633
0.83,-0.142386332387741
0.84,-0.145057835076145
0.85,-0.147784695378448
0.86,-0.150568780128784
0.87,-0.153412022122876
0.88,-0.156316422258913
0.89,-0.159284051694563
0.9,-0.162317054024124
0.91,-0.165417647479859
0.92,-0.168588127161449
0.93,-0.171830867297423
0.94,-0.175148323542508
0.95,-0.17854303531462
0.96,-0.182017628175521
0.97,-0.185574816258935
0.98,-0.18921740475004
0.99,-0.192948292420447
1,-0.196770474222525
1.01,-0.200687043947408
1.02,-0.204701196950733
1.03,-0.208816232950519
1.04,-0.213035558901611
1.05,-0.217362691951172
1.06,-0.221801262480016
1.07,-0.226355017234509
1.08,-0.231027822554038
1.09,-0.235823667699244
1.1,-0.240746668286229
1.11,-0.245801069832335
1.12,-0.250991251419041
1.13,-0.256321729478084
1.14,-0.261797161706604
1.15,-0.267422351117927
1.16,-0.273202250234384
1.17,-0.279141965428955
1.18,-0.285246761422963
1.19,-0.291522065946952
1.2,-0.297973474572545
1.21,-0.304606755723102
1.22,-0.31142785587142
1.23,-0.318442904933119
1.24,-0.325658221864475
1.25,-0.333080320474082
1.26,-0.340715915457898
1.27,-0.348571928667695
1.28,-0.35665549562339
1.29,-0.364973972280012
1.3,-0.373534942060659
1.31,-0.382346223167194
1.32,-0.391415876180811
1.33,-0.400752211965341
1.34,-0.410363799886416
1.35,-0.420259476360353
1.36,-0.430448353747042
1.37,-0.440939829601882
1.38,-0.451743596302184
1.39,-0.462869651064352
1.4,-0.474328306368518
1.41,-0.48613020080839
1.42,-0.498286310384246
1.43,-0.510807960258347
1.44,-0.523706836992241
1.45,-0.53699500128665
1.46,-0.550684901245151
1.47,-0.564789386183934
1.48,-0.579321721010559
1.49,-0.594295601195813
1.5,-0.609725168363368
1.51,-0.625625026523218
1.52,-0.642010258975694
1.53,-0.658896445913734
1.54,-0.676299682752631
1.55,-0.69423659921683
1.56,-0.712724379215183
1.57,-0.731780781536699
1.58,-0.751424161400204
1.59,-0.771673492892643
1.6,-0.792548392331607
1.61,-0.814069142589542
1.62,-0.836256718417782
1.63,-0.859132812810386
1.64,-0.882719864448908
1.65,-0.907041086270715
1.66,-0.93212049520507
1.67,-0.957982943122561
1.68,-0.984654149045283
1.69,-1.01216073266672
1.7,-1.04053024923203
1.71,-1.06979122583145
1.72,-1.09997319916138
1.73,-1.13110675480967
1.74,-1.16322356812436
1.75,-1.19635644672661
1.76,-1.2305393747326
1.77,-1.26580755874999
1.78,-1.30219747571983
1.79,-1.33974692267666
1.8,-1.37849506850352
1.81,-1.41848250776388
1.82,-1.45975131669563
1.83,-1.50234511145901
1.84,-1.54630910873509
1.85,-1.59169018877949
1.86,-1.63853696104242
1.87,-1.68689983247615
1.88,-1.73683107866002
1.89,-1.78838491788542
1.9,-1.84161758835596
1.91,-1.89658742867316
1.92,-1.95335496179551
1.93,-2.0119829826788
1.94,-2.07253664982821
1.95,-2.13508358101939
1.96,-2.19969395347591
1.97,-2.26644060882517
1.98,-2.335399163195
1.99,-2.4066481228593
2,-2.48026900589331
2.01,-2.55634647036028
2.02,-2.63496844962057
2.03,-2.7162262954339
2.04,-2.80021492961733
2.05,-2.88703300512641
2.06,-2.97678307754745
2.07,-3.06957178812719
2.08,-3.16551005962496
2.09,-3.26471330645422
2.1,-3.36730166078999
2.11,-3.47340021655848
2.12,-3.58313929350228
2.13,-3.69665472383136
2.14,-3.81408816433754
2.15,-3.9355874372713
2.16,-4.0613069037678
2.17,-4.19140787417259
2.18,-4.32605906026955
2.19,-4.46543707517132
2.2,-4.60972698751142
2.21,-4.75912293760246
2.22,-4.91382882442003
2.23,-5.0740590736716
2.24,-5.24003949885116
2.25,-5.41200826911179
2.26,-5.59021700006791
2.27,-5.77493198633864
2.28,-5.96643559785141
2.29,-6.1650278657523
2.3,-6.37102828835453
2.31,-6.58477789307296
2.32,-6.80664159696185
2.33,-7.03701091657638
2.34,-7.27630708777682
2.35,-7.52498466825292
2.36,-7.78353571057148
2.37,-8.05249461223177
2.38,-8.33244377259553
2.39,-8.6240202160219
2.4,-8.92792337792851
2.41,-9.24492429830638
2.42,-9.57587652880664
2.43,-9.92172913951317
2.44,-10.2835423162816
2.45,-10.6625061779421
2.46,-11.0599636272134
2.47,-11.4774382975778
2.48,-11.9166689960683
2.49,-12.379652505746
2.5,-12.8686972555313
2.51,-13.3864912685846
2.52,-13.9361890819746
2.53,-14.5215241666993
2.54,-15.1469560315946
2.55,-15.8178650541542
2.56,-16.5408136910584
2.57,-17.3239007683749
2.58,-18.1772466119935
2.59,-19.1136601813504
2.6,-20.1495489137007
2.61,-21.3061104085287
2.62,-22.610686897329
2.63,-24.0974667520079
2.64,-25.8039202675025
2.65,-27.7483950249982
2.66,-29.8355917985779
2.67,-31.5743171523211
2.68,-31.9289091159892
2.69,-30.6342129047039
2.7,-28.6875833476976
2.71,-26.7871681423424
2.72,-25.1151360791491
2.73,-23.6734611501455
2.74,-22.4267274919248
2.75,-21.3389265575202
2.76,-20.3805467362316
2.77,-19.5286033424312
2.78,-18.7653409630532
2.79,-18.0769592707237
2.8,-17.4526121458239
2.81,-16.8836678161288
2.82,-16.3631703540596
2.83,-15.8854471898181
2.84,-15.445820643944
2.85,-15.0403935120013
2.86,-14.6658877253008
2.87,-14.3195214386405
2.88,-13.9989142598288
2.89,-13.7020133350946
2.9,-13.4270350749322
2.91,-13.1724187457502
2.92,-12.9367891653075
2.93,-12.7189264591663
2.94,-12.5177413517738
2.95,-12.3322548404233
2.96,-12.1615813749
2.97,-12.0049148687307
2.98,-11.8615170195554
2.99,-11.7307075301958
3,-11.6118559084452
